10.000
7.000
24.000
38.000
12.000
34.000
24.000
12.000
27.000
34.000
20.000
17.000
0.000
15.000
24.000
24.000
20.000
27.000
31.000
31.000
13.000
9.000
48.000
34.000
7.000
20.000
10.000
14.000
6.000
31.000
33.000
27.000
3.000
20.000
14.000
31.000
24.000
10.000
14.000
36.000
24.000
27.000
25.000
17.000
23.000
13.000
31.000
7.000
24.000
23.000
6.000
17.000
17.000
27.000
21.000
13.000
10.000
10.000
10.000
0.000
28.000
23.000
17.000
6.000
17.000
28.000
26.000
7.000
14.000
38.000
45.000
21.000
17.000
0.000
31.000
27.000
28.000
0.000
20.000
31.000
27.000
14.000
28.000
14.000
9.000
27.000
0.000
16.000
14.000
34.000
10.000
31.000
21.000
37.000
17.000
42.000
35.000
20.000
38.000
21.000
46.000
24.000
27.000
7.000
31.000
6.000
17.000
17.000
38.000
14.000
30.000
16.000
13.000
34.000
17.000
27.000
17.000
41.000
7.000
17.000
21.000
17.000
28.000
20.000
20.000
21.000
34.000
20.000
28.000
6.000
19.000
23.000
10.000
24.000
18.000
28.000
17.000
17.000
16.000
20.000
7.000
23.000
34.000
16.000
24.000
17.000
6.000
37.000
24.000
15.000
24.000
9.000
31.000
38.000
21.000
32.000
14.000
17.000
24.000
20.000
34.000
7.000
6.000
17.000
14.000
7.000
35.000
10.000
6.000
24.000
27.000
17.000
14.000
3.000
17.000
17.000
19.000
34.000
6.000
9.000
13.000
17.000
18.000
44.000
27.000
33.000
30.000
17.000
24.000
17.000
21.000
14.000
6.000
26.000
3.000
21.000
7.000
16.000
14.000
16.000
10.000
10.000
26.000
7.000
34.000
20.000
45.000
9.000
35.000
24.000
7.000
17.000
31.000
41.000
10.000
13.000
36.000
16.000
24.000
20.000
24.000
24.000
7.000
45.000
42.000
3.000
10.000
9.000
10.000
27.000
41.000
7.000
20.000
27.000
20.000
10.000
6.000
29.000
17.000
30.000
7.000
10.000
17.000
0.000
37.000
27.000
30.000
7.000
0.000
28.000
20.000
33.000
44.000
21.000
20.000
17.000
9.000
14.000
15.000
24.000
24.000
17.000
13.000
18.000
14.000
17.000
9.000
27.000
6.000
7.000
10.000
14.000
30.000
7.000
14.000
16.000
19.000
27.000
35.000
7.000
20.000
14.000
14.000
14.000
10.000
13.000
14.000
25.000
29.000
20.000
38.000
30.000
17.000
10.000
27.000
16.000
27.000
10.000
28.000
27.000
23.000
20.000
31.000
17.000
38.000
20.000
17.000
26.000
26.000
14.000
14.000
3.000
28.000
31.000
17.000
10.000
3.000
41.000
36.000
17.000
9.000
13.000
6.000
23.000
24.000
20.000
34.000
20.000
34.000
27.000
27.000
20.000
23.000
17.000
20.000
10.000
31.000
20.000
17.000
23.000
31.000
24.000
9.000
21.000
27.000
30.000
32.000
23.000
34.000
20.000
30.000
17.000
20.000
17.000
19.000
10.000
23.000
59.000
24.000
41.000
16.000
35.000
22.000
10.000
25.000
10.000
9.000
25.000
18.000
38.000
3.000
10.000
17.000
23.000
10.000
14.000
29.000
22.000
24.000
21.000
34.000
41.000
24.000
20.000
7.000
27.000
21.000
17.000
26.000
17.000
24.000
13.000
16.000
12.000
29.000
33.000
36.000
20.000
39.000
59.000
16.000
37.000
27.000
49.000
3.000
20.000
19.000
31.000
19.000
19.000
13.000
34.000
21.000
28.000
17.000
14.000
45.000
30.000
10.000
20.000
19.000
0.000
17.000
26.000
17.000
10.000
23.000
42.000
33.000
36.000
36.000
27.000
24.000
14.000
13.000
17.000
6.000
7.000
24.000
16.000
28.000
34.000
28.000
38.000
19.000
14.000
13.000
3.000
30.000
36.000
6.000
7.000
31.000
17.000
3.000
31.000
13.000
21.000
10.000
13.000
0.000
30.000
34.000
21.000
7.000
27.000
17.000
17.000
24.000
17.000
30.000
38.000
12.000
23.000
24.000
34.000
22.000
23.000
27.000
40.000
3.000
26.000
34.000
34.000
20.000
14.000
15.000
17.000
34.000
20.000
23.000
31.000
17.000
20.000
17.000
24.000
7.000
7.000
7.000
41.000
17.000
20.000
31.000
14.000
17.000
13.000
3.000
10.000
23.000
33.000
7.000
6.000
34.000
7.000
27.000
7.000
14.000
41.000
12.000
27.000
31.000
14.000
21.000
17.000
17.000
24.000
38.000
23.000
3.000
35.000
13.000
3.000
27.000
21.000
24.000
30.000
13.000
0.000
27.000
21.000
22.000
23.000
31.000
16.000
10.000
33.000
31.000
16.000
14.000
29.000
26.000
13.000
24.000
17.000
37.000
27.000
10.000
13.000
23.000
16.000
20.000
31.000
10.000
34.000
24.000
29.000
17.000
23.000
17.000
31.000
30.000
23.000
31.000
16.000
17.000
17.000
17.000
25.000
28.000
30.000
36.000
10.000
30.000
24.000
3.000
21.000
29.000
25.000
13.000
24.000
17.000
13.000
20.000
25.000
3.000
17.000
17.000
14.000
20.000
16.000
10.000
6.000
18.000
21.000
41.000
23.000
20.000
24.000
3.000
32.000
28.000
33.000
7.000
7.000
7.000
17.000
14.000
10.000
24.000
21.000
27.000
45.000
0.000
17.000
10.000
34.000
7.000
20.000
27.000
12.000
31.000
13.000
19.000
16.000
31.000
38.000
24.000
24.000
45.000
13.000
23.000
30.000
24.000
7.000
30.000
37.000
24.000
17.000
17.000
21.000
13.000
26.000
9.000
13.000
17.000
20.000
37.000
7.000
13.000
27.000
17.000
8.000
10.000
24.000
27.000
35.000
26.000
7.000
24.000
20.000
17.000
3.000
27.000
19.000
6.000
24.000
20.000
20.000
14.000
23.000
27.000
17.000
23.000
20.000
38.000
16.000
13.000
24.000
14.000
34.000
10.000
23.000
14.000
24.000
7.000
17.000
38.000
10.000
35.000
38.000
13.000
0.000
24.000
38.000
3.000
34.000
16.000
10.000
20.000
10.000
28.000
31.000
26.000
14.000
22.000
19.000
10.000
10.000
37.000
13.000
14.000
31.000
20.000
30.000
13.000
23.000
38.000
42.000
28.000
14.000
28.000
19.000
17.000
41.000
14.000
3.000
16.000
14.000
24.000
14.000
17.000
16.000
29.000
33.000
16.000
16.000
0.000
10.000
20.000
19.000
21.000
16.000
17.000
21.000
24.000
13.000
23.000
13.000
14.000
10.000
41.000
17.000
24.000
17.000
34.000
7.000
38.000
20.000
24.000
21.000
23.000
28.000
10.000
34.000
23.000
40.000
17.000
40.000
30.000
16.000
10.000
19.000
13.000
22.000
10.000
34.000
27.000
20.000
20.000
23.000
17.000
27.000
27.000
7.000
28.000
10.000
10.000
13.000
19.000
21.000
36.000
10.000
6.000
13.000
41.000
38.000
27.000
23.000
24.000
22.000
6.000
27.000
31.000
31.000
30.000
12.000
16.000
52.000
14.000
37.000
20.000
28.000
13.000
34.000
21.000
6.000
27.000
27.000
24.000
17.000
34.000
3.000
24.000
14.000
27.000
27.000
7.000
17.000
9.000
16.000
41.000
21.000
3.000
24.000
23.000
23.000
20.000
10.000
9.000
24.000
26.000
14.000
29.000
19.000
23.000
26.000
26.000
42.000
35.000
6.000
23.000
14.000
19.000
35.000
30.000
13.000
13.000
35.000
26.000
23.000
24.000
7.000
36.000
15.000
30.000
6.000
19.000
45.000
30.000
22.000
24.000
12.000
26.000
29.000
14.000
24.000
13.000
21.000
17.000
31.000
51.000
31.000
25.000
9.000
20.000
20.000
42.000
24.000
13.000
13.000
27.000
36.000
24.000
37.000
31.000
20.000
13.000
27.000
24.000
7.000
38.000
24.000
13.000
13.000
14.000
6.000
24.000
19.000
27.000
20.000
27.000
24.000
37.000
28.000
38.000
23.000
13.000
7.000
34.000
38.000
49.000
10.000
14.000
13.000
19.000
17.000
10.000
24.000
21.000
16.000
31.000
31.000
10.000
30.000
13.000
23.000
14.000
13.000
6.000
21.000
35.000
18.000
23.000
24.000
23.000
23.000
20.000
20.000
33.000
16.000
26.000
28.000
7.000
34.000
23.000
17.000
14.000
20.000
23.000
15.000
20.000
13.000
27.000
0.000
20.000
14.000
34.000
21.000
0.000
0.000
36.000
38.000
3.000
34.000
17.000
10.000
31.000
50.000
24.000
0.000
41.000
10.000
31.000
7.000
6.000
10.000
13.000
23.000
20.000
34.000
27.000
28.000
14.000
23.000
12.000
28.000
13.000
27.000
9.000
0.000
17.000
10.000
16.000
20.000
7.000
18.000
26.000
34.000
22.000
44.000
3.000
21.000
13.000
13.000
27.000
23.000
12.000
21.000
23.000
24.000
17.000
28.000
17.000
17.000
16.000
24.000
28.000
31.000
33.000
31.000
10.000
24.000
6.000
23.000
30.000
20.000
24.000
24.000
16.000
33.000
21.000
16.000
41.000
9.000
3.000
10.000
26.000
9.000
30.000
7.000
23.000
31.000
20.000
3.000
7.000
17.000
27.000
0.000
27.000
17.000
40.000
21.000
35.000
20.000
6.000
32.000
23.000
37.000
7.000
27.000
13.000
13.000
20.000
24.000
21.000
30.000
17.000
24.000
26.000
6.000
9.000
28.000
26.000
36.000
20.000
26.000
6.000
51.000
17.000
3.000
30.000
21.000
19.000
27.000
31.000
38.000
7.000
35.000
19.000
31.000
19.000
13.000
27.000
20.000
16.000
9.000
34.000
23.000
15.000
27.000
13.000
24.000
16.000
23.000
27.000
17.000
41.000
31.000
16.000
33.000
7.000
31.000
30.000
42.000
17.000
17.000
17.000
15.000
18.000
9.000
13.000
21.000
44.000
14.000
20.000
23.000
10.000
23.000
20.000
28.000
24.000
49.000
24.000
18.000
31.000
27.000
27.000
27.000
33.000
17.000
21.000
27.000
38.000
20.000
10.000
29.000
10.000
24.000
28.000
17.000
19.000
30.000
14.000
20.000
20.000
28.000
27.000
16.000
16.000
27.000
28.000
17.000
20.000
20.000
13.000
20.000
17.000
3.000
27.000
24.000
26.000
13.000
41.000
20.000
21.000
11.000
23.000
24.000
31.000
27.000
10.000
24.000
20.000
6.000
32.000
14.000
35.000
20.000
23.000
21.000
34.000
13.000
34.000
17.000
24.000
7.000
20.000
26.000
28.000
26.000
27.000
13.000
20.000
34.000
6.000
45.000
28.000
10.000
14.000
17.000
21.000
28.000
27.000
26.000
38.000
3.000
27.000
20.000
30.000
23.000
16.000
33.000
37.000
20.000
56.000
37.000
20.000
18.000
0.000
13.000
14.000
37.000
20.000
23.000
13.000
11.000
13.000
24.000
23.000
17.000
38.000
13.000
41.000
24.000
21.000
33.000
17.000
24.000
10.000
20.000
13.000
20.000
17.000
6.000
7.000
10.000
23.000
34.000
24.000
9.000
16.000
34.000
23.000
23.000
6.000
26.000
20.000
14.000
17.000
27.000
34.000
28.000
20.000
24.000
14.000
17.000
6.000
10.000
7.000
10.000
24.000
30.000
25.000
26.000
10.000
21.000
19.000
17.000
24.000
30.000
28.000
30.000
14.000
22.000
7.000
23.000
7.000
44.000
9.000
9.000
17.000
34.000
34.000
14.000
34.000
20.000
37.000
27.000
45.000
10.000
38.000
17.000
17.000
28.000
24.000
38.000
27.000
14.000
21.000
17.000
14.000
10.000
24.000
17.000
17.000
13.000
17.000
31.000
20.000
28.000
29.000
20.000
0.000
17.000
17.000
27.000
33.000
27.000
37.000
37.000
10.000
27.000
17.000
31.000
48.000
14.000
31.000
20.000
30.000
0.000
31.000
25.000
7.000
16.000
27.000
23.000
17.000
0.000
6.000
26.000
17.000
23.000
21.000
24.000
17.000
23.000
21.000
22.000
13.000
24.000
27.000
7.000
23.000
43.000
19.000
30.000
20.000
13.000
34.000
23.000
20.000
28.000
23.000
17.000
28.000
31.000
10.000
0.000
26.000
13.000
21.000
24.000
23.000
40.000
24.000
7.000
17.000
16.000
31.000
27.000
13.000
27.000
41.000
14.000
17.000
14.000
21.000
9.000
19.000
13.000
23.000
20.000
20.000
27.000
16.000
7.000
27.000
6.000
6.000
42.000
27.000
20.000
26.000
3.000
13.000
22.000
3.000
24.000
9.000
24.000
24.000
3.000
36.000
13.000
31.000
34.000
17.000
33.000
19.000
34.000
10.000
21.000
27.000
24.000
13.000
35.000
0.000
14.000
18.000
21.000
29.000
16.000
41.000
42.000
25.000
17.000
27.000
28.000
24.000
41.000
36.000
24.000
14.000
17.000
13.000
24.000
23.000
37.000
12.000
27.000
12.000
13.000
17.000
30.000
14.000
10.000
13.000
13.000
13.000
22.000
16.000
7.000
38.000
31.000
13.000
24.000
38.000
13.000
20.000
13.000
35.000
30.000
17.000
12.000
20.000
37.000
7.000
24.000
35.000
28.000
34.000
10.000
20.000
17.000
7.000
37.000
9.000
17.000
34.000
17.000
23.000
27.000
44.000
14.000
17.000
6.000
