13.000
19.000
38.000
10.000
7.000
20.000
7.000
14.000
45.000
21.000
16.000
23.000
28.000
21.000
25.000
20.000
28.000
13.000
24.000
17.000
10.000
16.000
22.000
31.000
9.000
33.000
23.000
17.000
27.000
26.000
31.000
23.000
34.000
23.000
19.000
24.000
27.000
26.000
34.000
17.000
0.000
7.000
19.000
24.000
3.000
23.000
10.000
21.000
48.000
20.000
29.000
34.000
37.000
16.000
27.000
16.000
38.000
24.000
17.000
35.000
38.000
30.000
14.000
3.000
20.000
20.000
20.000
44.000
33.000
10.000
10.000
28.000
20.000
41.000
9.000
31.000
17.000
26.000
23.000
33.000
48.000
27.000
21.000
6.000
13.000
3.000
59.000
13.000
21.000
23.000
45.000
3.000
24.000
7.000
27.000
6.000
7.000
9.000
0.000
37.000
34.000
17.000
17.000
30.000
10.000
30.000
38.000
10.000
26.000
18.000
25.000
24.000
30.000
21.000
40.000
35.000
31.000
21.000
17.000
20.000
24.000
27.000
38.000
30.000
32.000
20.000
27.000
16.000
10.000
10.000
28.000
25.000
27.000
22.000
12.000
23.000
41.000
27.000
10.000
31.000
17.000
31.000
35.000
0.000
17.000
15.000
7.000
38.000
30.000
18.000
27.000
35.000
34.000
7.000
13.000
3.000
31.000
20.000
20.000
17.000
12.000
24.000
26.000
20.000
31.000
16.000
27.000
36.000
17.000
27.000
17.000
20.000
43.000
20.000
20.000
38.000
13.000
7.000
16.000
17.000
23.000
27.000
23.000
13.000
24.000
30.000
23.000
30.000
31.000
20.000
22.000
27.000
13.000
23.000
48.000
14.000
34.000
28.000
10.000
10.000
30.000
20.000
3.000
47.000
13.000
17.000
38.000
24.000
31.000
17.000
31.000
10.000
24.000
34.000
7.000
27.000
37.000
13.000
27.000
19.000
27.000
7.000
26.000
12.000
17.000
31.000
17.000
23.000
48.000
20.000
9.000
35.000
17.000
30.000
23.000
31.000
20.000
15.000
0.000
36.000
30.000
23.000
23.000
24.000
23.000
34.000
24.000
44.000
37.000
6.000
10.000
7.000
24.000
13.000
23.000
13.000
14.000
17.000
10.000
38.000
34.000
24.000
38.000
31.000
19.000
13.000
15.000
20.000
31.000
13.000
9.000
21.000
27.000
34.000
10.000
14.000
11.000
20.000
32.000
41.000
7.000
31.000
16.000
28.000
15.000
38.000
38.000
22.000
10.000
7.000
13.000
38.000
24.000
24.000
24.000
30.000
13.000
31.000
3.000
13.000
24.000
27.000
23.000
20.000
14.000
23.000
14.000
20.000
28.000
16.000
16.000
20.000
31.000
24.000
12.000
41.000
17.000
14.000
26.000
31.000
19.000
16.000
44.000
6.000
21.000
10.000
10.000
30.000
27.000
35.000
24.000
29.000
20.000
20.000
23.000
28.000
35.000
28.000
31.000
20.000
6.000
20.000
17.000
24.000
24.000
3.000
39.000
22.000
37.000
42.000
17.000
14.000
23.000
18.000
37.000
22.000
20.000
14.000
28.000
35.000
24.000
17.000
14.000
13.000
37.000
20.000
0.000
33.000
28.000
35.000
33.000
20.000
30.000
20.000
26.000
34.000
23.000
19.000
27.000
27.000
3.000
7.000
26.000
23.000
45.000
21.000
26.000
29.000
20.000
23.000
31.000
27.000
31.000
14.000
49.000
20.000
18.000
23.000
26.000
28.000
0.000
13.000
30.000
31.000
35.000
24.000
35.000
3.000
34.000
16.000
31.000
17.000
0.000
31.000
27.000
35.000
24.000
27.000
26.000
24.000
16.000
20.000
13.000
31.000
20.000
17.000
24.000
24.000
17.000
33.000
14.000
6.000
34.000
38.000
10.000
6.000
10.000
31.000
20.000
34.000
24.000
30.000
13.000
35.000
6.000
31.000
10.000
45.000
28.000
7.000
13.000
23.000
38.000
16.000
7.000
10.000
31.000
40.000
6.000
43.000
31.000
27.000
28.000
3.000
34.000
13.000
14.000
19.000
34.000
31.000
33.000
31.000
19.000
20.000
30.000
18.000
17.000
39.000
31.000
14.000
27.000
27.000
38.000
3.000
10.000
34.000
38.000
25.000
27.000
17.000
24.000
26.000
45.000
34.000
14.000
14.000
38.000
38.000
13.000
9.000
34.000
23.000
10.000
13.000
14.000
20.000
10.000
31.000
13.000
28.000
38.000
16.000
42.000
35.000
17.000
34.000
16.000
7.000
30.000
20.000
13.000
28.000
28.000
33.000
24.000
27.000
24.000
20.000
48.000
38.000
26.000
32.000
19.000
22.000
20.000
23.000
30.000
24.000
24.000
35.000
24.000
13.000
35.000
28.000
16.000
40.000
34.000
17.000
17.000
16.000
23.000
8.000
34.000
20.000
7.000
17.000
13.000
16.000
20.000
18.000
23.000
13.000
17.000
30.000
23.000
34.000
10.000
10.000
22.000
27.000
28.000
49.000
19.000
26.000
34.000
24.000
38.000
20.000
24.000
20.000
25.000
34.000
27.000
31.000
48.000
30.000
24.000
14.000
24.000
27.000
27.000
17.000
13.000
19.000
24.000
31.000
24.000
29.000
26.000
20.000
39.000
24.000
15.000
27.000
7.000
16.000
33.000
18.000
6.000
20.000
0.000
27.000
34.000
62.000
12.000
20.000
24.000
27.000
21.000
31.000
30.000
10.000
23.000
25.000
20.000
12.000
34.000
23.000
11.000
30.000
3.000
23.000
11.000
27.000
7.000
24.000
17.000
20.000
38.000
19.000
20.000
24.000
17.000
44.000
3.000
9.000
17.000
3.000
10.000
17.000
37.000
23.000
20.000
12.000
22.000
27.000
16.000
45.000
17.000
21.000
23.000
35.000
14.000
31.000
24.000
49.000
35.000
23.000
7.000
31.000
10.000
34.000
15.000
20.000
16.000
28.000
23.000
13.000
24.000
20.000
19.000
23.000
17.000
25.000
20.000
13.000
9.000
49.000
31.000
19.000
3.000
17.000
34.000
10.000
35.000
31.000
19.000
17.000
32.000
35.000
19.000
26.000
31.000
14.000
14.000
27.000
46.000
37.000
19.000
24.000
34.000
23.000
10.000
41.000
17.000
21.000
13.000
37.000
34.000
30.000
41.000
15.000
13.000
23.000
27.000
10.000
14.000
20.000
13.000
19.000
27.000
45.000
20.000
23.000
34.000
20.000
19.000
40.000
27.000
20.000
23.000
13.000
14.000
26.000
48.000
23.000
27.000
38.000
7.000
17.000
35.000
45.000
19.000
49.000
16.000
9.000
22.000
19.000
31.000
34.000
45.000
13.000
45.000
45.000
27.000
3.000
26.000
23.000
17.000
41.000
26.000
48.000
30.000
13.000
27.000
32.000
16.000
24.000
22.000
20.000
16.000
31.000
44.000
14.000
23.000
41.000
35.000
18.000
23.000
24.000
35.000
34.000
7.000
27.000
31.000
27.000
38.000
35.000
27.000
27.000
7.000
16.000
23.000
24.000
44.000
31.000
24.000
20.000
14.000
17.000
27.000
3.000
25.000
34.000
31.000
14.000
23.000
28.000
38.000
20.000
13.000
30.000
19.000
0.000
24.000
37.000
10.000
28.000
22.000
19.000
18.000
17.000
17.000
16.000
30.000
41.000
30.000
13.000
6.000
12.000
3.000
31.000
45.000
31.000
17.000
26.000
23.000
38.000
35.000
34.000
23.000
17.000
31.000
16.000
24.000
3.000
38.000
24.000
24.000
13.000
27.000
21.000
14.000
28.000
20.000
43.000
17.000
34.000
29.000
26.000
17.000
13.000
17.000
24.000
9.000
7.000
13.000
7.000
17.000
23.000
28.000
27.000
16.000
24.000
34.000
3.000
31.000
13.000
31.000
14.000
20.000
23.000
15.000
21.000
23.000
30.000
32.000
20.000
19.000
28.000
10.000
14.000
34.000
3.000
37.000
55.000
31.000
31.000
34.000
28.000
23.000
24.000
6.000
16.000
19.000
31.000
20.000
23.000
21.000
23.000
13.000
59.000
43.000
6.000
17.000
30.000
10.000
32.000
31.000
31.000
19.000
34.000
20.000
20.000
24.000
9.000
28.000
23.000
24.000
13.000
21.000
17.000
38.000
22.000
23.000
17.000
23.000
16.000
7.000
27.000
33.000
34.000
16.000
10.000
31.000
20.000
17.000
13.000
38.000
17.000
13.000
31.000
30.000
24.000
27.000
10.000
21.000
30.000
21.000
12.000
19.000
27.000
52.000
58.000
27.000
42.000
13.000
13.000
34.000
41.000
22.000
21.000
24.000
17.000
29.000
38.000
7.000
17.000
27.000
15.000
34.000
14.000
18.000
55.000
17.000
24.000
10.000
16.000
13.000
31.000
20.000
13.000
33.000
6.000
34.000
13.000
42.000
17.000
28.000
28.000
23.000
24.000
28.000
38.000
42.000
28.000
24.000
37.000
17.000
38.000
38.000
24.000
27.000
20.000
49.000
21.000
7.000
24.000
10.000
34.000
21.000
2.000
18.000
23.000
9.000
27.000
34.000
36.000
27.000
28.000
13.000
31.000
14.000
24.000
31.000
38.000
30.000
20.000
17.000
30.000
25.000
14.000
23.000
19.000
29.000
20.000
16.000
30.000
34.000
31.000
27.000
27.000
27.000
23.000
31.000
20.000
20.000
38.000
7.000
45.000
23.000
37.000
11.000
23.000
17.000
40.000
20.000
3.000
31.000
34.000
10.000
38.000
52.000
14.000
30.000
23.000
38.000
37.000
18.000
13.000
22.000
34.000
23.000
21.000
34.000
17.000
22.000
48.000
27.000
34.000
28.000
27.000
17.000
24.000
17.000
13.000
24.000
10.000
6.000
20.000
35.000
20.000
30.000
32.000
31.000
19.000
22.000
31.000
30.000
24.000
31.000
6.000
17.000
21.000
30.000
3.000
45.000
17.000
19.000
39.000
23.000
13.000
31.000
10.000
23.000
27.000
35.000
7.000
21.000
49.000
27.000
45.000
31.000
9.000
22.000
13.000
34.000
27.000
26.000
21.000
30.000
20.000
27.000
24.000
55.000
24.000
20.000
34.000
10.000
20.000
19.000
13.000
8.000
24.000
23.000
27.000
9.000
27.000
20.000
49.000
22.000
27.000
37.000
23.000
41.000
23.000
14.000
20.000
24.000
37.000
41.000
27.000
23.000
41.000
27.000
24.000
13.000
19.000
11.000
21.000
26.000
6.000
38.000
16.000
42.000
40.000
19.000
21.000
34.000
6.000
40.000
31.000
22.000
27.000
28.000
22.000
28.000
23.000
3.000
24.000
31.000
23.000
31.000
10.000
17.000
34.000
27.000
29.000
42.000
27.000
37.000
31.000
34.000
28.000
27.000
10.000
51.000
30.000
37.000
19.000
22.000
45.000
20.000
27.000
31.000
25.000
20.000
24.000
48.000
0.000
27.000
14.000
34.000
30.000
31.000
36.000
30.000
16.000
19.000
17.000
42.000
13.000
16.000
7.000
24.000
54.000
23.000
23.000
20.000
10.000
31.000
26.000
7.000
34.000
20.000
28.000
34.000
22.000
30.000
7.000
14.000
34.000
42.000
20.000
20.000
16.000
20.000
14.000
27.000
27.000
36.000
37.000
16.000
20.000
17.000
10.000
33.000
19.000
34.000
30.000
6.000
17.000
14.000
31.000
35.000
18.000
26.000
29.000
24.000
24.000
26.000
7.000
14.000
10.000
41.000
30.000
17.000
24.000
31.000
14.000
20.000
27.000
56.000
10.000
33.000
21.000
19.000
17.000
16.000
20.000
30.000
37.000
31.000
23.000
15.000
26.000
19.000
19.000
14.000
38.000
17.000
23.000
41.000
41.000
17.000
14.000
24.000
33.000
26.000
38.000
41.000
42.000
31.000
20.000
14.000
20.000
9.000
37.000
30.000
34.000
28.000
41.000
31.000
22.000
43.000
17.000
28.000
13.000
22.000
37.000
31.000
24.000
3.000
17.000
17.000
16.000
28.000
30.000
23.000
27.000
17.000
27.000
29.000
17.000
14.000
24.000
38.000
27.000
24.000
28.000
19.000
20.000
31.000
13.000
42.000
30.000
35.000
21.000
9.000
27.000
13.000
34.000
51.000
23.000
13.000
16.000
24.000
23.000
51.000
44.000
17.000
10.000
33.000
22.000
17.000
21.000
24.000
37.000
29.000
10.000
43.000
30.000
43.000
24.000
3.000
21.000
13.000
20.000
17.000
24.000
20.000
17.000
17.000
31.000
38.000
55.000
45.000
22.000
17.000
21.000
7.000
53.000
24.000
10.000
10.000
22.000
7.000
13.000
14.000
20.000
24.000
24.000
24.000
38.000
21.000
13.000
23.000
21.000
34.000
43.000
27.000
19.000
39.000
17.000
28.000
27.000
34.000
10.000
3.000
33.000
26.000
45.000
49.000
25.000
31.000
32.000
52.000
13.000
29.000
26.000
16.000
13.000
28.000
21.000
24.000
34.000
13.000
13.000
30.000
10.000
7.000
0.000
17.000
24.000
24.000
14.000
14.000
43.000
6.000
20.000
20.000
21.000
19.000
0.000
16.000
17.000
31.000
41.000
24.000
10.000
11.000
17.000
27.000
15.000
21.000
27.000
35.000
17.000
14.000
25.000
37.000
14.000
16.000
20.000
3.000
27.000
42.000
26.000
6.000
37.000
3.000
20.000
30.000
23.000
19.000
24.000
13.000
9.000
26.000
27.000
20.000
10.000
17.000
47.000
20.000
20.000
